Wavelength,Excitation,Emission
300,8.30484811030302,0
301,8.69454520090908,0
302,9.06670980277056,0
303,9.42134191588744,0
304,9.75844154025973,0
305,10.0748918095238,0
306,10.3813853320346,0
307,10.6688312142857,0
308,10.9415584142857,0
309,11.1887445887446,0
310,11.4415584415584,0
311,11.6688311688312,0
312,11.8813852813853,0
313,12.0748917748918,0
314,12.2675324675325,0
315,12.4242424242424,0
316,12.556277056277,0
317,12.6683982683983,0
318,12.7437229437229,0
319,12.7298701298701,0
320,12.6385281385281,0
321,12.4787878787879,0
322,12.2419913419913,0
323,11.9017316290043,0
324,11.4757575757576,0
325,10.9835497298701,0
326,10.4177488077922,0
327,9.79134186926406,0
328,9.11038946277055,0
329,8.3891773082251,0
330,7.65974012380951,0
331,6.93896100259739,0
332,6.24372293809523,0
333,5.5774892099567,0
334,4.96839833766233,0
335,4.4134200090909,0
336,3.92554115714285,0
337,3.49610387316017,0
338,3.14285711861471,0
339,2.84805192857142,0
340,2.60086577705627,0
341,2.3974026069264,0
342,2.22683984978355,0
343,2.08961039090909,0
344,1.99264064632034,0
345,1.92510814415584,0
346,1.86753237532467,0
347,1.81125533593073,0
348,1.76753243290043,0
349,1.74329006883117,0
350,1.70779228008658,0
351,1.68311698917749,0
352,1.64458886277056,0
353,1.63419923419913,0
354,1.62770572770563,0
355,1.62510834329004,0
356,1.65064945670995,0
357,1.70000007229437,0
358,1.74025976580086,0
359,1.76277053722943,0
360,1.78311681082251,0
361,1.80779209264069,0
362,1.84328992207792,0
363,1.87662329047619,0
364,1.92337656060606,0
365,1.95670991948052,0
366,1.98311686926407,0
367,2.01385281688311,0
368,2.06017316926407,0
369,2.1,0
370,2.13982683982684,0
371,2.17705627705627,0
372,2.22294372294372,0
373,2.26017316017316,0
374,2.29090909090909,0
375,2.33679652770562,0
376,2.39999999696969,0
377,2.45411256796536,0
378,2.49696973419913,0
379,2.55064943160173,0
380,2.63722952943723,0
381,2.71688319220779,0
382,2.77402598138528,0
383,2.85064933419913,0
384,2.9510822082251,0
385,3.05108224112554,0
386,3.16883119826839,0
387,3.28008667792207,0
388,3.38917756493506,0
389,3.47186151515151,0
390,3.54632031818181,0
391,3.62597397316017,0
392,3.68614706580086,0
393,3.75800857359307,0
394,3.81515145064935,0
395,3.83549779740259,0
396,3.84372287662337,0
397,3.82640687012986,0
398,3.80303025064935,0
399,3.76883111818181,0
400,3.72813847272727,0
401,3.71385279999999,0
402,3.69696969999999,0
403,3.69090909999999,0
404,3.69999999999999,0
405,3.69090909999999,0
406,3.69696969999999,0
407,3.70476187272727,0
408,3.72510819999999,0
409,3.77359304458874,0
410,3.82813847056277,0
411,3.89090905108225,0
412,3.96883114025973,0
413,4.04025972077922,0
414,4.11212117532467,0
415,4.15800858658008,0
416,4.18917742294372,0
417,4.22121201515151,0
418,4.22121201515151,0
419,4.20735924112554,0
420,4.1640692017316,0
421,4.09350644155844,0
422,3.99610383852813,0
423,3.84761903982683,0
424,3.66103895454545,0
425,3.46709957099567,0
426,3.24329009090909,0
427,3.01818187186147,0
428,2.7627706077922,0
429,2.51428571774891,0
430,2.27662335844156,0
431,2.03419914285714,0
432,1.79567098441558,0
433,1.59393939974026,0
434,1.39567099610389,0
435,1.22510822978355,0
436,1.06450217735931,0
437,0.916017309134198,0
438,0.801731610476189,0
439,0.701731613766233,0
440,0.625108234891774,0
441,0.567532477229436,0
442,0.51125541073593,0
443,0.46753247056277,0
444,0.434199142424242,0
445,0.413852829696969,0
446,0.400000021515151,0
447,0.377056297012987,0
448,0.362770575324675,0
449,0.337229444675324,0
450,0.313852816623376,0
451,0.296969696363636,0
452,0.290909089090909,0
453,0.3,0
454,0.290909089090909,0
455,0.296969696363636,0
456,0.313852816623376,0
457,0.337229444675324,0
458,0.362770575324675,0
459,0.377056297012987,0
460,0.400000021515151,0
461,0.42294374060606,0
462,0.437229446060605,0
463,0.462770563939393,0
464,0.48614718030303,0
465,0.503030292121211,0
466,0.518181802727272,0
467,0.503030292121211,0
468,0.48614718030303,0
469,0.462770563939393,0
470,0.437229446060605,0
471,0.413852829696969,0
472,0.396969717878787,0
473,0.390909113636363,0
474,0.400000019999999,0
475,0.400000019999999,0
476,0.400000019999999,0
477,0.400000019999999,0
478,0.400000019999999,0
479,0.390909113636363,0
480,0.396969717878787,0
481,0.413852829696969,0
482,0.437229446060605,0
483,0.453679653030302,0
484,0.483116876666666,0
485,0.516883108744588,0
486,0.54632034103896,0
487,0.562770565324675,0
488,0.577056283376623,0
489,0.600000010303029,0
490,0.622943736147185,0
491,0.63722945095238,0
492,0.662770579047618,0
493,0.677056293852813,0
494,0.700000019696969,0
495,0.722943746623376,0
496,0.737229464675324,0
497,0.762770595324674,0
498,0.777056321558441,0
499,0.800000043030302,0
500,0.822943753679653,0
501,0.828138536536796,0
502,0.859740248917748,0
503,0.890909062943722,0
504,0.93722940164502,0
505,0.976623344675323,0
506,1.02034630502164,0
507,1.07056276372294,0
508,1.12943722848485,0
509,1.17965368025974,0
510,1.2233766251948,0
511,1.26277056277056,0
512,1.3,0
513,1.33722943722944,0
514,1.38571428571428,0
515,1.4142857051948,0
516,1.46277055974026,0
517,1.50000001385281,0
518,1.52813858354978,0
519,1.58268405151515,0
520,1.62813858658008,0
521,1.69090911038961,0
522,1.75974024025974,0
523,1.82813846969697,0
524,1.91385274502164,0
525,1.99696964155844,0
526,2.09090907705627,0
527,2.19999999393939,0
528,2.3000000060606,0
529,2.39090912294372,0
530,2.49696974025974,0
531,2.60476191255411,0
532,2.73419915497835,0
533,2.87662338354978,0
534,3.01428576536796,0
535,3.15367969220779,0
536,3.30606061861471,0
537,3.44502166623376,0
538,3.60606063160173,0
539,3.75367963116883,0
540,3.9142857012987,0
541,4.08571428225108,0
542,4.23722946103895,0
543,4.39999995974025,0
544,4.5718614034632,0
545,4.71731594761904,0
546,4.87186139999999,0
547,4.99999991601731,0
548,5.1372294116883,0
549,5.27662341385281,0
550,5.42034637662337,0
551,5.57056281601731,0
552,5.72943726406926,0
553,5.87056280346319,0
554,6.02034626103895,0
555,6.16753242034631,0
556,6.33419907619047,0
557,6.49567096103895,0
558,6.69393942943722,0
559,6.90476191515151,0
560,7.12813854675324,0
561,7.35064941558441,0
562,7.57878789523808,0
563,7.83896109177488,0
564,8.11558439004328,0
565,8.40389605108224,0
566,8.74328998658007,0
567,9.12683971731601,0
568,9.54372286536795,0
569,9.98961034155843,0
570,10.4666666376623,0
571,10.9926407047619,0
572,11.529870138961,0
573,12.0805194805195,0
574,12.6865800865801,0
575,13.334632034632,0
576,14.0268398268398,0
577,14.7523808614718,0
578,15.5160172857143,0
579,16.2956713160173,0
580,17.0939397359307,0
581,17.9047622251082,0
582,18.7372296926407,0
583,19.5718616190476,0
584,20.3982683939394,0
585,21.2012985021645,0
586,21.9792207186147,0
587,22.7194805497835,0
588,23.4225106536796,0
589,24.0683981255411,0
590,24.6774889523809,0
591,25.2346314805194,0
592,25.7268392251082,0
593,26.1432896320346,0
594,26.512986987013,0
595,26.8004332164502,0
596,27.0099573722943,0
597,27.1480528701298,0
598,27.2519487705627,0
599,27.2991346320346,0
600,27.3025976190476,0.0999999999999999
601,27.2640696190476,0.0999999999999999
602,27.2073594891775,0.0999999999999999
603,27.1030305714285,0.0999999999999999
604,26.996970025974,0.0999999999999999
605,26.8926412857142,0.0909090899999999
606,26.8177493593073,0.0969696966666665
607,26.7822516190476,0.113852815238095
608,26.8073595194805,0.137229440952381
609,26.9121214329004,0.153679660865801
610,27.1090905194805,0.183116892034632
611,27.3999993766233,0.207792214891775
612,27.7909083809523,0.24329004987013
613,28.2787875151515,0.267532476753246
614,28.8896102337662,0.311255419177489
615,29.6406931168831,0.367532474112554
616,30.5316021774891,0.434199139999999
617,31.5774897922077,0.49567101112554
618,32.7714293160173,0.593939408961038
619,34.1086585584415,0.686580097705627
620,35.5913423073593,0.822077922467531
621,37.2194805151515,0.969264093549782
622,39.0103894372294,1.15021646341991
623,40.9792206320346,1.36017315480519
624,43.1103892467532,1.60086581333333
625,45.4194802554112,1.87619048666666
626,47.8913415324675,2.22554111645021
627,50.5086573463203,2.61515152164502
628,53.2805189870129,3.09523809783549
629,56.1987010173159,3.65367963852813
630,59.2419915454545,4.32510823896103
631,62.4090909307358,5.09740259956709
632,65.6701302813852,6.01168826666666
633,69.0177495238094,7.07792197402596
634,72.4138529393938,8.33246740043289
635,75.8164498181817,9.75844135757575
636,79.1926402683982,11.4190475800866
637,82.5164503116882,13.3021645839827
638,85.7047627662337,15.4398269917749
639,88.6965373290042,17.8285716809524
640,91.4597407532466,20.5203467835498
641,93.9225110649349,23.5095243809523
642,96.0372298268397,26.8419918917749
643,97.7541127705626,30.5155847229437
644,99.005195099567,34.5554116277056
645,99.7549788354977,38.9125547532467
646,99.9744592207791,43.5285719523809
647,99.6164504285713,48.3103895800865
648,98.7056272597401,53.1428565064934
649,97.2328999523808,57.9528129350649
650,95.2264067575756,62.6779208268397
651,92.6956710129869,67.2640680216449
652,89.6471867748917,71.6675323809523
653,86.1666674112553,75.8813862597401
654,82.325974103896,79.8943736277055
655,78.1567096796536,83.669265099567
656,73.7432890086579,87.1225115324674
657,69.1740242597402,90.2277065021644
658,64.5242406839826,92.9380967532466
659,59.8497822900432,95.2043303506492
660,55.1999998744588,97.0164519653678
661,50.6774896926406,98.3748928354977
662,46.3212127748917,99.3142868744587
663,42.1510827878787,99.8645022770561
664,38.1987015714285,100.026839839827
665,34.4714282987013,99.8225109264068
666,31.0147186147186,99.2792217792206
667,27.7991341991342,98.3800872770561
668,24.8580086580086,97.178789103896
669,22.1831167922078,95.6822524285713
670,19.7303030909091,93.9463217316016
671,17.5134200822511,92.0064935151514
672,15.518182051948,89.9116882164501
673,13.683550038961,87.6597392424241
674,12.0389612545454,85.317314112554
675,10.5562772463203,82.874024164502
676,9.26277064199133,80.3861457878787
677,8.11255407575757,77.8545449653679
678,7.08484852640692,75.3246748138527
679,6.2030303077922,72.7735932770562
680,5.40129866450216,70.2294379480519
681,4.6562770064935,67.6493512640692
682,3.97316011948051,65.1190478051947
683,3.34761901385281,62.6112560086579
684,2.79307356969697,60.1519488614718
685,2.30735933636363,57.7359319826839
686,1.9103896378355,55.4025985108224
687,1.58225108441558,53.1272742554112
688,1.30562769688311,50.9255423939393
689,1.09437230290043,48.7640699696969
690,0.926839846017315,46.6844159956709
691,0.792640688354977,44.6748919610389
692,0.678787886536796,42.7463203246753
693,0.57878789077922,40.9138524025974
694,0.510822529307359,39.1969692727272
695,0.441991352077921,37.5999994675324
696,0.387878799437229,36.1121209437229
697,0.350649362294372,34.6982678614718
698,0.328138538311688,33.3610389523809
699,0.313852816623376,32.0982682943722
700,0.306060604545454,30.9121211471861
701,0.293939391818181,29.8272728831168
702,0.286147187532467,28.8242424675324
703,0.262770566493506,27.8965368181818
704,0.237229443506493,27.022078012987
705,0.222943732467532,26.2056275324675
706,0.20000001060606,25.4363635757575
707,0.177056286580086,24.7164499350649
708,0.162770569047619,24.0701297445887
709,0.137229440952381,23.5194805930736
710,0.113852815238095,23.0316015194805
711,0.101774891952381,22.5805194025974
712,0.0955411250952381,22.1666664329004
713,0.0951515146666667,21.7926404372294
714,0.100606060666667,21.429869987013
715,0,21.089610069264
716,0,20.7987011298701
717,0,20.5238095497835
718,0,20.2848485541125
719,0,20.0645021255411
720,0,19.8653678614718
721,0,19.6766232510822
722,0,19.4831166883117
723,0,19.303030038961
724,0,19.1030303030303
725,0,18.8922078744588
726,0,18.6796540865801
727,0,18.4696973722943
728,0,18.2515154632034
729,0,18.0095241861472
730,0,17.7658011774892
731,0,17.5181822207792
732,0,17.240260056277
733,0,16.9809524329004
734,0,16.6891777186147
735,0,16.3982685367965
736,0,16.0839828874459
737,0,15.7264072597402
738,0,15.3627710909091
739,0,15.0060611082251
740,0,14.6450222337662
741,0,14.3060611991342
742,0,13.9536801212121
743,0,13.6233767878788
744,0,13.2887446493506
745,0,12.9233764458874
746,0,12.5627703896104
747,0,12.1999997402597
748,0,11.8372293766234
749,0,11.4766234675325
750,0,11.1112554385281
751,0,10.7675324584415
752,0,10.4341990774892
753,0,10.1047617995671
754,0,9.79696958181817
755,0,9.49090907445886
756,0,9.20909087792206
757,0,8.90303038095237
758,0,8.57705639783549
759,0,8.25974034372293
760,0,7.94199143722943
761,0,7.64805198484847
762,0,7.36450215108224
763,0,7.10216457489176
764,0,6.86753248528138
765,0,6.6341992108225
766,0,6.40476188008657
767,0,6.19696965714285
768,0,5.99090909480519
769,0,5.79999998744588
770,0,5.60000000043289
771,0,5.39090919090908
772,0,5.19696976969696
773,0,5.00476197922077
774,0,4.82510823116882
775,0,4.66450218917748
776,0,4.53419915541125
777,0,4.4077922030303
778,0,4.2831169051948
779,0,4.16277059653679
780,0,4.03116879350649
781,0,3.89696961904761
782,0,3.77359294069264
783,0,3.66536787619047
784,0,3.57662329264069
785,0,3.48311685541125
786,0,3.39393944502164
787,0,3.30000008571428
788,0,3.19696976277056
789,0,3.11385279177489
790,0,3.02813845151515
791,0,2.95974019653679
792,0,2.89999994718614
793,0,2.83116885670995
794,0,2.76883125021645
795,0,2.6909092
796,0,2.63722954155844
797,0,2.57662343939394
798,0,2.52034635757575
799,0,2.47056278441558
800,0,2.42943722640692
801,0,2.37056276147186
802,0,2.32943722943723
803,0,2.27056277056277
804,0,2.22943722943723
805,0,2.17056277056277
806,0,2.12943723852814
807,0,2.07056277359307
808,0,2.0203463064935
809,0,1.96753243030303
810,0,1.93419907142857
811,0,1.91385272770562
812,0,1.89999989696969
813,0,1.87705616796537
814,0,1.87186135367965
815,0,1.84025963419913
816,0,1.80909083679653
817,0,1.76277053722943
818,0,1.71428573982684
819,0,1.67662344891775
820,0,1.64329015844156
821,0,1.60779232900433
822,0,1.59220787835498
823,0,1.55671001948052
824,0,1.52337666060606
825,0,1.4857142995671
826,0,1.43722943419913
827,0,1.39090908181818
828,0,1.35974025974026
829,0,1.32813852813853
830,0,1.32294372294372
831,0,1.3
832,0,1.27705627705628
833,0,1.27186147186147
834,0,1.24025974025974
835,0,1.2
836,0,1.15974025974026
837,0,1.13722943904762
838,0,1.11688311748918
839,0,1.08311688034632
840,0,1.06277055714286
841,0,1.04025972831169
842,0,0.999999979999999
843,0,0.95974023168831
844,0,0.937229395584414
845,0,0.916883077229436
846,0,0.883116853593072
847,0,0.853679641645021
848,0,0.837229447445886
849,0,0.813852842770562
850,0,0.796969739393938
851,0,0.800000049090908
852,0,0.803030343636362
853,0,0.786147223376622
854,0,0.771861505324674
855,0,0.740259768008657
856,0,0.70000002138528
857,0,0.659740275411255
858,0,0.628138540043289
859,0,0.613852825238094
860,0,0.596969706666666
861,0,0.60000001090909
862,0,0.603030313636363
863,0,0.586147193376622
864,0,0.562770565324675
865,0,0.537229434675324
866,0,0.513852806623376
867,0,0.496969686363636
868,0,0.499999985454545
869,0,0.503030292121211
870,0,0.48614718030303
871,0,0.462770563939393
872,0,0.437229446060605
873,0,0.413852829696969
874,0,0.396969717878787
875,0,0.390909113636363
876,0,0.400000019999999
877,0,0.400000019999999
878,0,0.40909093090909
879,0,0.403030323636363
880,0,0.386147203376623
881,0,0.362770575324675
882,0,0.337229444675324
883,0,0.313852816623376
884,0,0.296969696363636
885,0,0.290909089090909
886,0,0.3
887,0,0.3
888,0,0.3
889,0,0.3
890,0,0.3
891,0,0.309090908181818
892,0,0.303030302727272
893,0,0.286147187532467
894,0,0.262770566493506
895,0,0.237229443506493
896,0,0.213852822467532
897,0,0.196969707272727
898,0,0.190909101818182
899,0,0.20000001
900,0,0.20000001
901,0,0.20000001
902,0,0.20000001
903,0,0.20000001
904,0,0.20000001
905,0,0.20000001
906,0,0.20000001
907,0,0.20000001
908,0,0.20000001
909,0,0.20000001
910,0,0.20000001
911,0,0.20000001
912,0,0.20000001
913,0,0.20000001
914,0,0.20000001
915,0,0.20000001
916,0,0.20000001
917,0,0.20909092
918,0,0.203030313333333
919,0,0.186147194761905
920,0,0.162770569047619
921,0,0.137229440952381
922,0,0.113852815238095
923,0,0.0969696966666665
924,0,0.0909090899999999
925,0,0.0999999999999999
926,0,0.0999999999999999
927,0,0.0999999999999999
928,0,0.0999999999999999
929,0,0.0999999999999999
930,0,0.0999999999999999
931,0,0.0999999999999999
932,0,0.0999999999999999
933,0,0.0999999999999999
934,0,0.0999999999999999
935,0,0.0999999999999999
936,0,0.0999999999999999
937,0,0.0999999999999999
938,0,0.0999999999999999
939,0,0.0999999999999999
940,0,0.0999999999999999
941,0,0.0999999999999999
942,0,0.0999999999999999
943,0,0.0999999999999999
944,0,0.0999999999999999
945,0,0.0999999999999999
946,0,0.0999999999999999
947,0,0.0999999999999999
948,0,0.0999999999999999
949,0,0.0999999999999999
950,0,0.0999999999999999
951,0,0.0999999999999999
952,0,0.0999999999999999
953,0,0.0999999999999999
954,0,0.0999999999999999
955,0,0.0999999999999999
956,0,0.0999999999999999
957,0,0.0999999999999999
958,0,0.0999999999999999
959,0,0.0999999999999999
960,0,0.0999999999999999
961,0,0.0999999999999999
962,0,0.0999999999999999
963,0,0.0999999999999999
964,0,0.0999999999999999
965,0,0.0999999999999999
966,0,0.0999999999999999
967,0,0.0999999999999999
968,0,0.0999999999999999
969,0,0.0999999999999999
970,0,0.0999999999999999
