Wavelength,Excitation,Emission
300,21.0212122909091,0
301,19.8969693393939,0
302,18.9629863121212,0
303,18.2192632090909,0
304,17.665800030303,0
305,17.4129865238095,0
306,17.277922021645,0
307,17.2129871904762,0
308,17.1476193073593,0
309,17.0813856233766,0
310,16.9688315497835,0
311,16.8233767619047,0
312,16.6645023073593,0
313,16.535930991342,0
314,16.4255414502164,0
315,16.374458982684,0
316,16.382250974026,0
317,16.4688307532467,0
318,16.6216447359307,0
319,16.8090909047619,0
320,16.9995673333333,0
321,17.1597406883117,0
322,17.2012991904762,0
323,17.1177493809524,0
324,16.8463207445887,0
325,16.3900435844156,0
326,15.7419914458874,0
327,14.9277056926407,0
328,13.972294334632,0
329,12.9489175359307,0
330,11.8796532679654,0
331,10.8220776891775,0
332,9.79437222770561,0
333,8.81948067359306,0
334,7.90735943160172,0
335,7.07489193679653,0
336,6.33246766147185,0
337,5.68874462813852,0
338,5.13246747272727,0
339,4.6748917069264,0
340,4.3073592077922,0
341,4.0012986021645,0
342,3.77922069740259,0
343,3.61948045238095,0
344,3.53160165281385,0
345,3.48961035887445,0
346,3.47878787575757,0
347,3.48181821818181,0
348,3.48787877575757,0
349,3.51082247705627,0
350,3.53290037705627,0
351,3.57575752164502,0
352,3.66147184675324,0
353,3.77012987056277,0
354,3.91082251255411,0
355,4.05064942467532,0
356,4.20519485064935,0
357,4.36753246493506,0
358,4.52207789567099,0
359,4.70649349870129,0
360,4.92683981774891,0
361,5.18961034848484,0
362,5.50173146580086,0
363,5.8463203095238,0
364,6.19610386580086,0
365,6.49480514329003,0
366,6.74155835714285,0
367,6.89090906147185,0
368,6.92813847878787,0
369,6.8735930095238,0
370,6.72510808051947,0
371,6.49567090043289,0
372,6.17575747056276,0
373,5.76233755800865,0
374,5.31645010173159,0
375,4.81688313333333,0
376,4.32207796969696,0
377,3.86623386320346,0
378,3.45497844891774,0
379,3.09437236190476,0
380,2.78658012857142,0
381,2.52077921515151,0
382,2.29264066536796,0
383,2.07575759047619,0
384,1.8926406982684,0
385,1.73896106450216,0
386,1.59264072467532,0
387,1.47575760995671,0
388,1.39264072467532,0
389,1.33896103593073,0
390,1.30173159264069,0
391,1.2969696969697,0
392,1.29393939393939,0
393,1.28614718614718,0
394,1.26277056277056,0
395,1.24632034632034,0
396,1.20779220779221,0
397,1.18008658008658,0
398,1.16753246753247,0
399,1.17445887445887,0
400,1.16753246753247,0
401,1.18008658008658,0
402,1.20779220779221,0
403,1.24632034632034,0
404,1.26277056277056,0
405,1.28614718614718,0
406,1.3030303030303,0
407,1.30909090909091,0
408,1.3,0
409,1.3,0
410,1.3,0
411,1.3,0
412,1.29090909090909,0
413,1.28787878787879,0
414,1.31082251082251,0
415,1.35108225108225,0
416,1.4,0
417,1.44891774891775,0
418,1.48008657099567,0
419,1.5090909060606,0
420,1.51385282770563,0
421,1.52510828051948,0
422,1.57359314242424,0
423,1.62813858658008,0
424,1.69090911038961,0
425,1.75974024025974,0
426,1.83722937878788,0
427,1.91688304805195,0
428,1.99220773679653,0
429,2.05670994285714,0
430,2.12337662640692,0
431,2.17662338571428,0
432,2.24329004329004,0
433,2.3077921987013,0
434,2.38311688008658,0
435,2.46277057662337,0
436,2.54935068658008,0
437,2.60303036580086,0
438,2.65497844112554,0
439,2.7030304060606,0
440,2.74935075844155,0
441,2.77186157186147,0
442,2.78614728614718,0
443,2.8030304030303,0
444,2.80000011818181,0
445,2.7969698030303,0
446,2.81385288614718,0
447,2.83722946277056,0
448,2.86277053722943,0
449,2.88614711385281,0
450,2.90303019696969,0
451,2.90909079090909,0
452,2.8999999,0
453,2.8999999,0
454,2.90909079090909,0
455,2.90303019696969,0
456,2.88614711385281,0
457,2.86277053722943,0
458,2.84632037186147,0
459,2.81688318917749,0
460,2.79220789826839,0
461,2.75671007489177,0
462,2.72337672337662,0
463,2.68571439480519,0
464,2.63722954025974,0
465,2.59090917705627,0
466,2.55974032251082,0
467,2.52813856536796,0
468,2.50476190952381,0
469,2.49393938787878,0
470,2.50476190952381,0
471,2.52813856536796,0
472,2.55064941341991,0
473,2.59696978311688,0
474,2.64502176623376,0
475,2.69696981212121,0
476,2.75974033203463,0
477,2.83116885670995,0
478,2.90909088354978,0
479,2.9718613995671,0
480,3.01731588398268,0
481,3.06277045367965,0
482,3.09696962640692,0
483,3.14199133809523,0
484,3.21082257662337,0
485,3.28787885541125,0
486,3.39090915411255,0
487,3.5000000060606,0
488,3.59090903549783,0
489,3.69696967099567,0
490,3.80476186147186,0
491,3.92510822164502,0
492,4.07359311861471,0
493,4.22813853376623,0
494,4.39090906883116,0
495,4.55974017922077,0
496,4.72813841558441,0
497,4.9138527103896,0
498,5.09696959090908,0
499,5.2909090038961,0
500,5.50909089610389,0
501,5.70303027272726,0
502,5.8861472138528,0
503,6.06277058831168,0
504,6.23722952943722,0
505,6.39567112424242,0
506,6.58181834069263,0
507,6.80649367922077,0
508,7.0670997082251,0
509,7.35238097835497,0
510,7.67575755974025,0
511,8.03290032987012,0
512,8.40173154155843,0
513,8.77575752640691,0
514,9.18354977792206,0
515,9.62683986450215,0
516,10.0943723268398,0
517,10.6147186316017,0
518,11.185281391342,0
519,11.8147186056277,0
520,12.4852812943723,0
521,13.2147187662337,0
522,13.9943724025974,0
523,14.817748982684,0
524,15.6805195930736,0
525,16.5896103073593,0
526,17.5298698961039,0
527,18.5017313506493,0
528,19.4878783203463,0
529,20.4909087792208,0
530,21.5090904155844,0
531,22.5121208658008,0
532,23.5073593939394,0
533,24.4822513160173,0
534,25.4086584372294,0
535,26.2714291515151,0
536,27.0865805800865,0
537,27.8346322943723,0
538,28.5177485670995,0
539,29.1402593982684,0
540,29.7086576277056,0
541,30.2316013982684,0
542,30.6822506406926,0
543,31.084415073593,0
544,31.4748914761904,0
545,31.8463203939394,0
546,32.2047619523809,0
547,32.5848485757575,0.100606060666667
548,32.9744588701298,0.0951515146666666
549,33.4147187575757,0.095541125095238
550,33.8870130995671,0.101774891952381
551,34.4233769999999,0.113852815238095
552,35.0645027662337,0.128138532770563
553,35.8359314285714,0.159740266320346
554,36.7255415324675,0.190909096320346
555,37.7835496666666,0.228138536839827
556,38.9761901255411,0.282683990995671
557,40.3337658917748,0.319047620995671
558,41.8467528658008,0.387878786233766
559,43.5233765757575,0.46450217099567
560,45.4229434285714,0.553246761948051
561,47.5229433593073,0.678354986623376
562,49.823376051948,0.812987009999999
563,52.3467533290042,0.974458888441557
564,55.0337668225107,1.18658010766234
565,57.9034639523809,1.42251085220779
566,60.9017316017315,1.71948055229437
567,64.0142856277055,2.07012985722943
568,67.2558437878787,2.49826837316017
569,70.5549778874458,3.00303023852813
570,73.9138519567099,3.58787872597402
571,77.2883114761904,4.28961031168831
572,80.6190474675324,5.1225108051948
573,83.8822508181817,6.10735935064934
574,86.9969685454544,7.26277063809523
575,89.9316011688311,8.62510828008657
576,92.6212122510821,10.2155844839827
577,94.9787884155843,12.0268399532467
578,96.9593079740258,14.0805195380952
579,98.4727280303029,16.3805192238095
580,99.495239155844,18.9177485151515
581,99.9779228484847,21.7034627142857
582,99.939827121212,24.7177485194805
583,99.3528146406925,27.9805191082251
584,98.2168843636362,31.4987008398268
585,96.5406939523808,35.2419908787878
586,94.3233778787878,39.2181817532467
587,91.5744595714284,43.3913415800865
588,88.3580092857142,47.7372285194805
589,84.6995668008657,52.1943715714285
590,80.7017306017315,56.6861467878787
591,76.4090894848484,61.1805195238094
592,71.9103882164501,65.6121211341991
593,67.2896089047618,69.9268389826839
594,62.599999103896,74.0748912380951
595,57.9194796103895,77.9948041861471
596,53.3108221818181,81.6536784415583
597,48.8285714761904,84.9982680216449
598,44.5121215757575,88.0103895497834
599,40.3878792294372,90.6822522251081
600,36.4896111558441,92.9874466017315
601,32.8316024069264,94.9701300389609
602,29.4285722164502,96.6303028831168
603,26.2822514761904,97.9614712597401
604,23.405628,98.9701293246752
605,20.8034632207792,99.6471854545453
606,18.429870021645,100.001297792208
607,16.2878784359307,100.012120497835
608,14.3627703164502,99.6878780173159
609,12.6354976493506,99.080519116883
610,11.0870129294372,98.2012989696968
611,9.71168833766232,97.0969699177488
612,8.48831188571427,95.8034636147185
613,7.41298708441557,94.3476193636362
614,6.4554113077922,92.7718616969696
615,5.6432900125541,91.0878787012986
616,4.91991341385281,89.3389615541124
617,4.29047622164501,87.5155845541124
618,3.7268399017316,85.6038969696969
619,3.24285719567099,83.6251084025973
620,2.79913425454545,81.5935063809523
621,2.41168834285714,79.5350653246752
622,2.08528141688311,77.4692649264068
623,1.82683981437229,75.3909098484847
624,1.58354977904762,73.3458878311687
625,1.37575757281385,71.284848090909
626,1.19264069264069,69.2251085844155
627,1.03896104670996,67.1662334805194
628,0.89264068108225,65.142857095238
629,0.775757579307358,63.1870141515151
630,0.701731613766233,61.3134214025973
631,0.641991359696969,59.5151522467532
632,0.587878803160172,57.8164507619047
633,0.559740257445887,56.1822511645021
634,0.531168826796536,54.608658064935
635,0.499999996926406,53.0623367835497
636,0.468831171212121,51.5744578095237
637,0.431168838787878,50.1363629480519
638,0.400000013073593,48.7567088658008
639,0.359740273203463,47.4238085367965
640,0.328138538311688,46.1813853419913
641,0.313852816623376,45.0199136623376
642,0.306060604545454,43.9432905887445
643,0.293939391818181,42.9735933939393
644,0.286147187532467,42.1463204891774
645,0.262770566493506,41.4333335887445
646,0.237229443506493,40.7896103376623
647,0.204761914285714,40.1770561168831
648,0.193939404545454,39.5549783896103
649,0.204761914285714,38.8935068311688
650,0.237229443506493,38.1779226320346
651,0.271861474675324,37.4142861125541
652,0.28917749025974,36.6614724415584
653,0.28917749025974,35.9406929826839
654,0.271861474675324,35.277922047619
655,0.237229443506493,34.6662336536796
656,0.204761914285714,34.0991338701298
657,0.203030312727272,33.5614716623376
658,0.207792217012987,33.0294373116883
659,0.232467541038961,32.470563090909
660,0.22259741021645,31.9203467445887
661,0.202987019415584,31.3675328181818
662,0.173636368636363,30.8432905238095
663,0.134545457878787,30.3077928398268
664,0,29.7922084025974
665,0,29.2658012813852
666,0,28.7354983636363
667,0,28.1658012857142
668,0,27.592208064935
669,0,27.0168832467532
670,0,26.4463202424242
671,0,25.8536792683982
672,0,25.2831165454545
673,0,24.7077917186147
674,0,24.1432895800865
675,0,23.567532069264
676,0,23.0203461168831
677,0,22.4705626969697
678,0,21.9294369350649
679,0,21.3705624329004
680,0,20.8294369350649
681,0,20.2705626969697
682,0,19.720346025974
683,0,19.1675321298701
684,0,18.6341989307359
685,0,18.1047616796537
686,0,17.5969692943723
687,0,17.0909087792208
688,0,16.5999996233766
689,0,16.0999996883117
690,0,15.5909087792208
691,0,15.0969693203463
692,0,14.6047615021645
693,0,14.116016974026
694,0,13.6614717142857
695,0,13.2298702207792
696,0,12.8389611255411
697,0,12.4645023376623
698,0,12.1021647619047
699,0,11.7675325281385
700,0,11.4432899523809
701,0,11.1077922350649
702,0,10.783116874026
703,0,10.4536795969697
704,0,10.1281384047619
705,0,9.81082246233765
706,0,9.50173154632033
707,0,9.2160173181818
708,0,8.97359308744587
709,0,8.728138508658
710,0,8.49090904935064
711,0,8.25974014588743
712,0,8.0281384155844
713,0,7.81385275281384
714,0,7.59696956796536
715,0,7.38181814545454
716,0,7.19696973809523
717,0,7.0047619090909
718,0,6.83419925021644
719,0,6.67662350086579
720,0,6.51428585194804
721,0,6.35367971948051
722,0,6.20606053896103
723,0,6.04502159480519
724,0,5.89696967099566
725,0,5.75974020216449
726,0,5.63116887056276
727,0,5.50000004718614
728,0,5.35974032857142
729,0,5.22813859480519
730,0,5.11385283506493
731,0,5.00606057748917
732,0,4.89393935021644
733,0,4.78614714242424
734,0,4.66277057186147
735,0,4.53722942813852
736,0,4.41385285757575
737,0,4.29696972251082
738,0,4.19090914069263
739,0,4.09999998831168
740,0,4.00000001168831
741,0,3.89090907748917
742,0,3.79696964718614
743,0,3.71385269350649
744,0,3.63722934978354
745,0,3.56277046536796
746,0,3.48614718268398
747,0,3.40303034502164
748,0,3.30909099480519
749,0,3.20000004761904
750,0,3.09090908095238
751,0,2.99696965411255
752,0,2.91385279740259
753,0,2.82813852640692
754,0,2.75974034112554
755,0,2.6909092
756,0,2.63722954155844
757,0,2.58571434848484
758,0,2.51428575151515
759,0,2.46277057662337
760,0,2.39999999696969
761,0,2.33722942813853
762,0,2.27662337662337
763,0,2.22034632034632
764,0,2.17965368874459
765,0,2.12337662640692
766,0,2.06277054891775
767,0,1.99999996277056
768,0,1.93722935627705
769,0,1.87662328441558
770,0,1.82034624502164
771,0,1.77056273593073
772,0,1.72034634588744
773,0,1.67662345800866
774,0,1.63722954632034
775,0,1.600000104329
776,0,1.56277062554112
777,0,1.51428575151515
778,0,1.4857142995671
779,0,1.43722943419913
780,0,1.39999999090909
781,0,1.36277056277056
782,0,1.31428571428571
783,0,1.27662337662337
784,0,1.23419913419913
785,0,1.21385281385281
786,0,1.2
787,0,1.17705627705628
788,0,1.17186147367965
789,0,1.1402597408658
790,0,1.09999999722944
791,0,1.06883116320346
792,0,1.03116881922078
793,0,0.999999979999999
794,0,0.95974023168831
795,0,0.928138493766232
796,0,0.922943678441557
797,0,0.899999956969696
798,0,0.877056246320345
799,0,0.862770552554111
800,0,0.837229447445886
801,0,0.822943753679653
802,0,0.800000043030302
803,0,0.777056321558441
804,0,0.762770595324674
805,0,0.737229464675324
806,0,0.713852836623376
807,0,0.706060626363635
808,0,0.693939412424241
809,0,0.686147204761904
810,0,0.662770579047618
811,0,0.63722945095238
812,0,0.613852825238094
813,0,0.596969706666666
814,0,0.590909099999999
815,0,0.60909092090909
816,0,0.603030313636363
817,0,0.586147193376622
818,0,0.562770565324675
819,0,0.537229434675324
820,0,0.513852806623376
821,0,0.496969686363636
822,0,0.490909079090908
823,0,0.499999989999999
824,0,0.509090896363636
825,0,0.503030292121211
826,0,0.48614718030303
827,0,0.462770563939393
828,0,0.437229446060605
829,0,0.413852829696969
830,0,0.396969717878787
831,0,0.390909113636363
832,0,0.400000019999999
833,0,0.400000019999999
834,0,0.400000019999999
835,0,0.40909093090909
836,0,0.403030323636363
837,0,0.386147203376623
838,0,0.362770575324675
839,0,0.337229444675324
840,0,0.313852816623376
841,0,0.296969696363636
842,0,0.290909089090909
843,0,0.3
844,0,0.3
845,0,0.3
846,0,0.3
847,0,0.3
848,0,0.3
849,0,0.3
850,0,0
851,0,0
852,0,0
853,0,0
854,0,0
855,0,0
856,0,0
857,0,0
858,0,0
859,0,0
860,0,0
861,0,0
862,0,0
863,0,0
864,0,0
865,0,0
866,0,0
867,0,0
868,0,0
869,0,0
870,0,0
871,0,0
872,0,0
873,0,0
874,0,0
875,0,0
876,0,0
877,0,0
878,0,0
879,0,0
880,0,0
881,0,0
882,0,0
883,0,0
884,0,0
885,0,0
886,0,0
887,0,0
888,0,0
889,0,0
890,0,0
891,0,0
892,0,0
893,0,0
894,0,0
895,0,0
896,0,0
897,0,0
898,0,0
899,0,0
900,0,0
901,0,0
902,0,0
903,0,0
904,0,0
905,0,0
906,0,0
907,0,0
908,0,0
909,0,0
910,0,0
911,0,0
912,0,0
913,0,0
914,0,0
915,0,0
916,0,0
917,0,0
918,0,0
919,0,0
920,0,0
921,0,0
922,0,0
923,0,0
924,0,0
925,0,0
926,0,0
927,0,0
928,0,0
929,0,0
930,0,0
931,0,0
932,0,0
933,0,0
934,0,0
935,0,0
936,0,0
937,0,0
938,0,0
939,0,0
940,0,0
941,0,0
942,0,0
943,0,0
944,0,0
945,0,0
946,0,0
947,0,0
948,0,0
949,0,0
950,0,0
951,0,0
952,0,0
953,0,0
954,0,0
955,0,0
956,0,0
957,0,0
958,0,0
959,0,0
960,0,0
961,0,0
962,0,0
963,0,0
964,0,0
965,0,0
966,0,0
967,0,0
968,0,0
969,0,0
970,0,0
