Wavelength,Excitation,Emission
300,11.0690909672727,0
301,10.9472727284848,0
302,10.7940692241126,0
303,10.6094804541558,0
304,10.3935064186147,0
305,10.1030302463203,0
306,9.81991332337661,0
307,9.52987005930735,0
308,9.28961038095237,0
309,9.08961035151514,0
310,8.92987014761903,0
311,8.81991342251081,0
312,8.71212120173159,0
313,8.59653688744587,0
314,8.44329020259739,0
315,8.21601753982683,0
316,7.8956713134199,0
317,7.47575778787878,0
318,6.97142875454545,0
319,6.4103897047619,0
320,5.80000003030302,0
321,5.19870131774891,0
322,4.63160177186147,0
323,4.1194805073593,0
324,3.67012989783549,0
325,3.31645022380952,0
326,3.03636365714285,0
327,2.82380954025974,0
328,2.64632037835498,0
329,2.49307362727272,0
330,2.35541128744588,0
331,2.24502164199134,0
332,2.15584415584415,0
333,2.08787879090909,0
334,2.02770561385281,0
335,1.99999996277056,0
336,1.95411249134199,0
337,1.89696961082251,0
338,1.85064924761905,0
339,1.82813841904762,0
340,1.81385271385281,0
341,1.79696959696969,0
342,1.79090899090909,0
343,1.7999999,0
344,1.7999999,0
345,1.7999999,0
346,1.7999999,0
347,1.7999999,0
348,1.79090899090909,0
349,1.79696959696969,0
350,1.80476179567099,0
351,1.83419903116883,0
352,1.87662329047619,0
353,1.92337656060606,0
354,1.95670991948052,0
355,1.99220777835498,0
356,2.01688311991342,0
357,2.03722944632034,0
358,2.05974025974026,0
359,2.09090909090909,0
360,2.12813852813852,0
361,2.18268398268398,0
362,2.22813852813852,0
363,2.3,0
364,2.36277055367965,0
365,2.42337662034632,0
366,2.47965369350649,0
367,2.52943726666666,0
368,2.57965374242424,0
369,2.63246761861471,0
370,2.66580096883116,0
371,2.70432911341991,0
372,2.7060607060606,0
373,2.70432911341991,0
374,2.66580096883116,0
375,2.63246761861471,0
376,2.57965374242424,0
377,2.52034635757575,0
378,2.46753248138528,0
379,2.44329004025974,0
380,2.4077921987013,0
381,2.39220779220779,0
382,2.35670995670995,0
383,2.31428571428571,0
384,2.27359307359307,0
385,2.24805194805194,0
386,2.24199134199134,0
387,2.25974025974026,0
388,2.26796536796536,0
389,2.3,0
390,2.32294372294372,0
391,2.34632034632034,0
392,2.37489177489177,0
393,2.37532467532467,0
394,2.36103896103896,0
395,2.32121212121212,0
396,2.24935065844156,0
397,2.18095236580086,0
398,2.08917746926407,0
399,1.9982683978355,0
400,1.87489178961039,0
401,1.73246755800866,0
402,1.58874462441558,0
403,1.42337665151515,0
404,1.2536796795671,0
405,1.09696969164502,0
406,0.941991336926406,0
407,0.810822515627705,0
408,0.678787886536796,0
409,0.587878801688311,0
410,0.51385283021645,0
411,0.428138534545454,0
412,0.350649358917748,0
413,0.287878798138528,0
414,0.251082263766233,0
415,0.213852822164502,0
416,0.174025981125541,0
417,0.153679660865801,0
418,0.137229440952381,0
419,0.113852815238095,0
420,0.0969696966666665,0
421,0.0909090899999999,0
422,0.0999999999999999,0
423,0.0999999999999999,0
424,0.0999999999999999,0
425,0.0999999999999999,0
426,0.0999999999999999,0
427,0.0999999999999999,0
428,0.0999999999999999,0
429,0.0999999999999999,0
430,0.0999999999999999,0
431,0.0999999999999999,0
432,0.0999999999999999,0
433,0.0909090899999999,0
434,0.0969696966666665,0
435,0.113852815238095,0
436,0.146320350952381,0
437,0.165800872380952,0
438,0.172294379523809,0
439,0.165800872380952,0
440,0.137229440952381,0
441,0.110822511904762,0
442,0.110822511904762,0
443,0.128138530952381,0
444,0.162770569047619,0
445,0.186147194761905,0
446,0.203030313333333,0
447,0.20909092,0
448,0.20000001,0
449,0.20000001,0
450,0.20000001,0
451,0.20000001,0
452,0.20000001,0
453,0.190909101818182,0
454,0.196969707272727,0
455,0.213852822467532,0
456,0.237229443506493,0
457,0.262770566493506,0
458,0.286147187532467,0
459,0.303030302727272,0
460,0.299999997272727,0
461,0.296969696363636,0
462,0.313852816623376,0
463,0.337229444675324,0
464,0.362770575324675,0
465,0.377056297012987,0
466,0.400000021515151,0
467,0.42294374060606,0
468,0.428138535151515,0
469,0.45974026030303,0
470,0.499999996926406,0
471,0.540259736796536,0
472,0.562770561688311,0
473,0.583116890043289,0
474,0.616883128874458,0
475,0.63722945095238,0
476,0.659740275411255,0
477,0.70000002138528,0
478,0.731168866190475,0
479,0.768831204718614,0
480,0.790909115238094,0
481,0.837229447445886,0
482,0.876623369177488,0
483,0.920346298268397,0
484,0.979653652554111,0
485,1.02337660077922,0
486,1.05367964683983,0
487,1.10606060510822,0
488,1.1450216456277,0
489,1.19696969878788,0
490,1.25974025974026,0
491,1.33116882207792,0
492,1.3999999969697,0
493,1.46883118268398,0
494,1.53116888658008,0
495,1.60000006883117,0
496,1.65974030909091,0
497,1.72813855367965,0
498,1.81385281125541,0
499,1.89696966190476,0
500,1.99090904761904,0
501,2.09999996796537,0
502,2.19090908484848,0
503,2.2969697030303,0
504,2.41385284588744,0
505,2.52813857142857,0
506,2.65974026753246,0
507,2.80000002077922,0
508,2.93116885627705,0
509,3.05974028051948,0
510,3.18787878658008,0
511,3.35108228095238,0
512,3.51385287056277,0
513,3.67402599567099,0
514,3.85367962077922,0
515,4.03722941168831,0
516,4.21385277272727,0
517,4.39696965974025,0
518,4.59090907272727,0
519,4.80000003116882,0
520,5.0000001051948,0
521,5.2000001030303,0
522,5.40000008181817,0
523,5.60000000043289,0
524,5.79090906017315,0
525,5.996969712987,0
526,6.2138528077922,0
527,6.42813855021644,0
528,6.65064946017315,0
529,6.89696977359306,0
530,7.14502173982683,0
531,7.39696979090908,0
532,7.6506495108225,0
533,7.91904783203462,0
534,8.21082267575756,0
535,8.50173173549782,0
536,8.81601737445886,0
537,9.1645021168831,0
538,9.52510816406925,0
539,9.90476184675323,0
540,10.287878747619,0
541,10.6787878558441,0
542,11.092640695671,0
543,11.5359306541125,0
544,12.0064935670995,0
545,12.5129871818182,0
546,13.0554114891775,0
547,13.6160175714286,0
548,14.1926409264069,0
549,14.7987014675324,0
550,15.4207792813853,0
551,16.0896102987013,0
552,16.7987012987013,0
553,17.5238095238095,0
554,18.2848484848485,0
555,19.0554111645021,0
556,19.8623378138528,0
557,20.6813853896104,0
558,21.5173160822511,0
559,22.3705627922078,0
560,23.2233766017316,0
561,24.0718614069264,0
562,24.9121211948052,0
563,25.7354977142857,0
564,26.555844017316,0
565,27.3337657402597,0
566,28.0761901385281,0
567,28.7744585844155,0
568,29.4134194242424,0
569,30.0194801125541,0
570,30.5792208744588,0
571,31.1103897229437,0
572,31.6103895887445,0
573,32.0701297142857,0
574,32.4982687272727,0.110909092
575,32.9030305887445,0.0960606056666667
576,33.3060605021645,0.0887878776666667
577,33.6956705454545,0.089090908
578,34.1129868311688,0.0969696966666665
579,34.5571425021645,0.113852815238095
580,35.0519475497835,0.128138532770563
581,35.5900426190476,0.159740266320346
582,36.1904754761904,0.200000007229437
583,36.8748911428571,0.231168835930736
584,37.649350077922,0.259740266493506
585,38.4999993333333,0.287878791125541
586,39.4597401125541,0.341991343463203
587,40.5281389437229,0.410822511948051
588,41.7138534458874,0.487878801774891
589,42.996970017316,0.581818194415584
590,44.3818184199134,0.687878797445887
591,45.8969699307359,0.801731606536795
592,47.5047613593073,0.929870142987012
593,49.2341977099566,1.0805194721645
594,51.067531077922,1.28658006354978
595,53.0203462467532,1.5255411051948
596,55.0705628181817,1.80562769584415
597,57.2294377142856,2.1419912987013
598,59.4796544025973,2.53852804935065
599,61.8324680216449,3.01212112294372
600,64.2658008398267,3.56883111515151
601,66.8134194891774,4.21904754112554
602,69.4272728051947,4.99264063030302
603,72.1147198658008,5.87748912813852
604,74.8432915584414,6.90129866233765
605,77.6251102337661,8.09999994502163
606,80.4350668701298,9.48961032121211
607,83.237664103896,11.1194804839827
608,85.9909109220778,13.0030302134199
609,88.6683992900432,15.2030302666666
610,91.20000012987,17.709524138961
611,93.5406918787878,20.5502168831169
612,95.6303013679652,23.7380954069264
613,97.3999979826838,27.2623377186147
614,98.7787858961038,31.1168832597402
615,99.6623355844155,35.2852817099567
616,99.9770550173159,39.7116879740259
617,99.6731597316016,44.400000012987
618,98.7086575887445,49.297403069264
619,97.0714290432899,54.3632038831168
620,94.7502164675323,59.5480522770562
621,91.7679657445886,64.7432903030302
622,88.164070142857,69.9099573593073
623,84.0056279480518,74.905196095238
624,79.3761910389609,79.6350656233765
625,74.3935069999999,83.9943727922077
626,69.1748912727272,87.9255406103895
627,63.8645020259739,91.3528124805194
628,58.5380941774891,94.2038936623375
629,53.3207784588744,96.4424217575756
630,48.267532099567,98.1281370129869
631,43.4428565411255,99.2402590692639
632,38.8857144285714,99.8437227056276
633,34.6450217142857,99.9761906926405
634,30.7346319696969,99.6818189307358
635,27.1865802640692,99.0086590865799
636,23.9896105670995,97.9718617835497
637,21.1419913679653,96.6268403722942
638,18.6090905411255,94.9969699610388
639,16.3792204212121,93.1515144242423
640,14.4207790108225,91.1645015367964
641,12.6909088428571,89.0987008614717
642,11.1580084393939,87.0125536753246
643,9.81038952164501,84.9943720432899
644,8.6316018069264,83.0917744458873
645,7.5896104108225,81.2558446060605
646,6.67878792337661,79.4320351688311
647,5.9000001060606,77.612987125541
648,5.21212121861471,75.7398278744588
649,4.59826846277056,73.773161138528
650,4.07012986623376,71.7458876709956
651,3.61948053376623,69.7207787705627
652,3.23160173722943,67.7515147229436
653,2.8805195064935,65.8303037748917
654,2.56666666623376,64.0073596103895
655,2.28354980952381,62.2822505670995
656,2.03593072207792,60.6086584891774
657,1.80649351948052,58.9714291428571
658,1.6129870060606,57.3683985238094
659,1.45541126372294,55.8103885800865
660,1.32510823835498,54.3393929437229
661,1.20476191047619,52.9333326017315
662,1.09696967705628,51.5965357316017
663,0.981818173506492,50.3311676839826
664,0.887878785108224,49.1177483852813
665,0.810822516666665,47.9346319523809
666,0.741991356233765,46.786580038961
667,0.69696972077922,45.671428056277
668,0.653679677229436,44.6177486277056
669,0.614285723419913,43.6034629826839
670,0.57662338056277,42.6177486536796
671,0.534199131341991,41.6805191515151
672,0.504761896623376,40.7896096883116
673,0.506060592727272,39.9298694718614
674,0.493939381212121,39.092640025974
675,0.48614718030303,38.2757574112554
676,0.462770563939393,37.4835499220779
677,0.437229446060605,36.7359309783549
678,0.413852829696969,36.0064937922077
679,0.396969717878787,35.3038962813852
680,0.390909113636363,34.6432898701298
681,0.400000019999999,34.0268393030303
682,0.400000019999999,33.4528135974026
683,0.400000019999999,32.9108223852813
684,0.400000019999999,32.3679654155844
685,0.400000019999999,31.8489178181818
686,0.400000019999999,31.3030303463203
687,0.400000019999999,30.7463203636363
688,0.40909093090909,30.1857142337662
689,0.403030323636363,29.6233767012987
690,0.386147203376623,29.0567102727272
691,0.371861483506493,28.4831171688311
692,0.340259747402597,27.9138535584415
693,0.290909095974026,27.3601739480519
694,0.25670996012987,26.7909095064935
695,0.241991345064935,26.2367969783549
696,0.260173164155844,25.7000002467532
697,0.262770566493506,25.1541127619047
698,0.263203466883117,24.6060605064935
699,0.265800869220779,24.0536796883117
700,0.246320351688311,23.5233769004329
701,0.213852822467532,22.979654064935
702,0.196969707272727,22.4294373030303
703,0.190909101818182,21.879654064935
704,0.20000001,21.3233769004329
705,0.20909092,20.7536797792207
706,0.203030313333333,20.1969697186147
707,0.186147194761905,19.6329003506493
708,0.162770569047619,19.1077918831169
709,0.137229440952381,18.6017313203463
710,0.104761905238095,18.1281382900433
711,0.0939393933333332,17.6627705627705
712,0.104761905238095,17.1861473333333
713,0.137229440952381,16.7030306450216
714,0.162770569047619,16.2000004025974
715,0.186147194761905,15.6878791645021
716,0.203030313333333,15.1926409134199
717,0.20909092,14.7359311991342
718,0.20000001,14.3155848095238
719,0.20909092,13.9160177532467
720,0.203030313333333,13.5506499437229
721,0.186147194761905,13.2000005281385
722,0.162770569047619,12.8402600735931
723,0.128138530952381,12.4627708571428
724,0.119913421904762,12.074026051948
725,0.113852815238095,11.7047619653679
726,0.114285715714286,11.3571427662338
727,0.125541128095238,11.0047618774892
728,0.123376625714286,10.6649350922078
729,0.116883118571428,10.3506493952381
730,0.106060606666667,10.0510822861472
731,0.0909090899999999,9.74199143463202
732,0.0999999999999999,9.45671002597401
733,0.0999999999999999,9.18181818095237
734,0.0999999999999999,8.93722937835497
735,0.0999999999999999,8.68571427532466
736,0.0999999999999999,8.41428575454544
737,0.0999999999999999,8.15367973593072
738,0.0999999999999999,7.90606067186146
739,0.0999999999999999,7.64502168484847
740,0,7.38787876363635
741,0,7.14761892640692
742,0,6.94199126320345
743,0,6.74199135541125
744,0,6.55671000173159
745,0,6.38181831904761
746,0,6.2372295051948
747,0,6.08571428961038
748,0,5.91428574112553
749,0,5.76277056190475
750,0,5.6000000108225
751,0,5.42813853246752
752,0,5.27359308051947
753,0,5.12510824805194
754,0,5.00476184242424
755,0,4.90606053809523
756,0,4.79393933463203
757,0,4.68614714848484
758,0,4.57186142987012
759,0,4.4402597069264
760,0,4.29090906103895
761,0,4.15670998138528
762,0,4.04199134415584
763,0,3.95108226709956
764,0,3.85974024112554
765,0,3.76796535194805
766,0,3.70909087099567
767,0,3.61688304588744
768,0,3.52034624025974
769,0,3.43939393593073
770,0,3.35151517619047
771,0,3.27662342770562
772,0,3.19696971082251
773,0,3.12813851212121
774,0,3.08571421515151
775,0,3.02337652640692
776,0,2.96580076623376
777,0,2.89523807878787
778,0,2.79393942251082
779,0,2.70606066450216
780,0,2.60476197359307
781,0,2.52510828051948
782,0,2.46450217835497
783,0,2.43419913116883
784,0,2.4077921987013
785,0,2.39220779220779
786,0,2.36580086580086
787,0,2.33549783549783
788,0,2.26580086580086
789,0,2.1922078012987
790,0,2.11688311991342
791,0,2.03722942337662
792,0,1.95064931341991
793,0,1.88787872510822
794,0,1.85108214675324
795,0,1.8138527047619
796,0,1.7831168017316
797,0,1.75670993116883
798,0,1.73246756709956
799,0,1.67965375497835
800,0,1.62034641255411
801,0,1.57662345757576
802,0,1.53722947445887
803,0,1.4909091047619
804,0,1.46883116580086
805,0,1.43116882207792
806,0,1.4
807,0,1.36883116883117
808,0,1.33116883116883
809,0,1.3
810,0,1.26883116883117
811,0,1.23116883116883
812,0,1.20909091090909
813,0,1.16277056337662
814,0,1.12337662242424
815,0,1.07965367281385
816,0,1.02034630502164
817,0,0.967532442857142
818,0,0.93419910103896
819,0,0.904761865714284
820,0,0.896969656363635
821,0,0.89999995090909
822,0,0.903030260606059
823,0,0.886147157229436
824,0,0.862770552554111
825,0,0.837229447445886
826,0,0.813852842770562
827,0,0.796969739393938
828,0,0.790909138181817
829,0,0.80909095090909
830,0,0.803030343636362
831,0,0.795238133376622
832,0,0.765800898658008
833,0,0.723376649437228
834,0,0.676623395670995
835,0,0.634199147316016
836,0,0.604761914329003
837,0,0.596969706666666
838,0,0.590909099999999
839,0,0.600000009999999
840,0,0.60909092090909
841,0,0.603030313636363
842,0,0.586147193376622
843,0,0.562770565324675
844,0,0.537229434675324
845,0,0.513852806623376
846,0,0.496969686363636
847,0,0.490909079090908
848,0,0.509090896363636
849,0,0.503030292121211
850,0,0.48614718030303
851,0,0.462770563939393
852,0,0.437229446060605
853,0,0.413852829696969
854,0,0.396969717878787
855,0,0.390909113636363
856,0,0.400000019999999
857,0,0.400000019999999
858,0,0.40909093090909
859,0,0.393939412727272
860,0,0.39220781064935
861,0,0.379653695584415
862,0,0.360606072727272
863,0,0.339393947272727
864,0,0.320346324415584
865,0,0.307792209350649
866,0,0.306060607272727
867,0,0.290909089090909
868,0,0.3
869,0,0.3
870,0,0.3
871,0,0.3
872,0,0.3
873,0,0.3
874,0,0.309090908181818
875,0,0.303030302727272
876,0,0.286147187532467
877,0,0.262770566493506
878,0,0.237229443506493
879,0,0.213852822467532
880,0,0.196969707272727
881,0,0.190909101818182
882,0,0.20000001
883,0,0.20000001
884,0,0.20000001
885,0,0.20000001
886,0,0.20000001
887,0,0.20000001
888,0,0.20000001
889,0,0.20000001
890,0,0.20000001
891,0,0.20000001
892,0,0.20000001
893,0,0.20909092
894,0,0.193939403333333
895,0,0.192207801428571
896,0,0.179653687619047
897,0,0.160606066666666
898,0,0.139393943333333
899,0,0.120346322380952
900,0,0.107792208571428
901,0,0.106060606666667
902,0,0.0909090899999999
903,0,0.0999999999999999
904,0,0.0999999999999999
905,0,0.0999999999999999
906,0,0.0999999999999999
907,0,0.0999999999999999
908,0,0.0999999999999999
909,0,0.0999999999999999
910,0,0.0999999999999999
911,0,0.0999999999999999
912,0,0.0999999999999999
913,0,0.0999999999999999
914,0,0.0999999999999999
915,0,0.0999999999999999
916,0,0.0999999999999999
917,0,0.0999999999999999
918,0,0.0999999999999999
919,0,0.0999999999999999
920,0,0.0999999999999999
921,0,0.0999999999999999
922,0,0.0999999999999999
923,0,0.0999999999999999
924,0,0.0999999999999999
925,0,0.0999999999999999
926,0,0.0999999999999999
927,0,0.0999999999999999
928,0,0.0999999999999999
929,0,0.0999999999999999
930,0,0.0999999999999999
931,0,0.0999999999999999
932,0,0.0999999999999999
933,0,0.0999999999999999
934,0,0.0999999999999999
935,0,0.0999999999999999
936,0,0.0999999999999999
937,0,0.0999999999999999
938,0,0.0999999999999999
939,0,0.0999999999999999
940,0,0.0999999999999999
941,0,0.0999999999999999
942,0,0.0999999999999999
943,0,0.0999999999999999
944,0,0.0999999999999999
945,0,0.0999999999999999
946,0,0.0999999999999999
947,0,0.0999999999999999
948,0,0.0999999999999999
949,0,0
950,0,0
951,0,0
952,0,0
953,0,0
954,0,0
955,0,0
956,0,0
957,0,0
958,0,0
959,0,0
960,0,0
961,0,0
962,0,0
963,0,0
964,0,0
965,0,0
966,0,0
967,0,0
968,0,0
969,0,0
970,0,0
