Wavelength,Excitation,Emission
300,14.7987879878788,0
301,15.1763637636364,0
302,15.5184416844156,0
303,15.8250217502164,0
304,16.0961039610389,0
305,16.3428570779221,0
306,16.5480517532467,0
307,16.7099564761905,0
308,16.8004326709956,0
309,16.8311686017316,0
310,16.7675323246753,0
311,16.6233763679653,0
312,16.3658006320346,0
313,15.9861469264069,0
314,15.4818180909091,0
315,14.8896107099567,0
316,14.2285718311688,0
317,13.5242429134199,0
318,12.7952385935065,0
319,12.0627709593073,0
320,11.3372296406926,0
321,10.5956709662338,0
322,9.87272713376622,0
323,9.17619048787878,0
324,8.55367966623375,0
325,7.97965367142856,0
326,7.52640682987012,0
327,7.19350636666666,0
328,6.96969694112553,0
329,6.83766237445886,0
330,6.80259742034631,0
331,6.83463215887445,0
332,6.90173179090908,0
333,6.97402612683982,0
334,7.06580087619047,0
335,7.14458863679653,0
336,7.17792197316016,0
337,7.19956699264068,0
338,7.1809522095238,0
339,7.13073584372293,0
340,7.03766242683982,0
341,6.94155858008657,0
342,6.83809542251081,0
343,6.70735946883116,0
344,6.54718629999999,0
345,6.36406944329004,0
346,6.13549793766233,0
347,5.89480532943722,0
348,5.63722957575757,0
349,5.40000004545454,0
350,5.16277058831168,0
351,4.91428569740259,0
352,4.66753236580086,0
353,4.43116873030302,0
354,4.21861463766233,0
355,4.0341991056277,0
356,3.84458872987012,0
357,3.67402599567099,0
358,3.50476196147186,0
359,3.34805199610389,0
360,3.19264069740259,0
361,3.09393935974026,0
362,2.99870124025974,0
363,2.92034625714285,0
364,2.83030297748917,0
365,2.75757579220779,0
366,2.68441565974026,0
367,2.62640701861471,0
368,2.56147194242424,0
369,2.52943726666666,0
370,2.47056278441558,0
371,2.42943722640692,0
372,2.37056276147186,0
373,2.32034632034632,0
374,2.27662337662337,0
375,2.23722943722943,0
376,2.2,0
377,2.16277056277056,0
378,2.11428571428571,0
379,2.08571429480519,0
380,2.03722944025974,0
381,1.99999998614718,0
382,1.96277052554112,0
383,1.92337654242424,0
384,1.87965358744588,0
385,1.82034624502164,0
386,1.77662334199134,0
387,1.73722946277056,0
388,1.69090916320346,0
389,1.65974036580086,0
390,1.62813864632034,0
391,1.62294383203463,0
392,1.6000001030303,0
393,1.57705636320346,0
394,1.57186153463203,0
395,1.54025977748918,0
396,1.50000001385281,0
397,1.45974025670995,0
398,1.41904760995671,0
399,1.41082251082251,0
400,1.41082251082251,0
401,1.42813852813853,0
402,1.46277056277056,0
403,1.48614718614718,0
404,1.5030303030303,0
405,1.49999999090909,0
406,1.49696969393939,0
407,1.51385282770563,0
408,1.52813856536796,0
409,1.55064943160173,0
410,1.59696978917749,0
411,1.64502172034632,0
412,1.69696972251082,0
413,1.75064932207792,0
414,1.83722937878788,0
415,1.90779213896104,0
416,1.98008652467532,0
417,2.06753245367965,0
418,2.15627705021645,0
419,2.27056279480519,0
420,2.40173162164502,0
421,2.55627705670995,0
422,2.73636362164502,0
423,2.91125538571428,0
424,3.10779216666666,0
425,3.29696967792207,0
426,3.48787876666666,0
427,3.70476193246753,0
428,3.93419914242424,0
429,4.16753241645021,0
430,4.41125534718614,0
431,4.66753241731601,0
432,4.94328997619047,0
433,5.1987012090909,0
434,5.4800865108225,0
435,5.75844155757575,0
436,6.07142862121211,0
437,6.38138536017315,0
438,6.70822525800865,0
439,7.05844176103895,0
440,7.43419932987012,0
441,7.79567121948051,0
442,8.18484872510821,0
443,8.58355000519479,0
444,9.0268400125541,0
445,9.49437240692639,0
446,10.0147186588744,0
447,10.585281365368,0
448,11.1965368450216,0
449,11.8792207277056,0
450,12.6333331645021,0
451,13.4476189047619,0
452,14.3510819350649,0
453,15.2995667878788,0
454,16.3086575454545,0
455,17.363202978355,0
456,18.445887069264,0
457,19.6034627792208,0
458,20.7896101861472,0
459,22.0160170865801,0
460,23.2675323896104,0
461,24.5294371948052,0
462,25.7917746103896,0
463,27.0398266883117,0
464,28.2389611082251,0
465,29.4099567575757,0
466,30.500433060606,0
467,31.5129867099567,0
468,32.4341991212121,0
469,33.3056273160173,0
470,34.124242034632,0
471,34.8999999870129,0
472,35.6757575584415,0
473,36.4852814069264,0
474,37.3354979870129,0
475,38.2826839783549,0.111515151757576
476,39.3298703939393,0.091212120939394
477,40.499567012987,0.0867099565930736
478,41.8298699783549,0.0980086587186147
479,43.3372296883116,0.125108227316017
480,45.0558439783549,0.173593077878788
481,46.9865793679653,0.219047627619047
482,49.1774885584415,0.287878798744588
483,51.6437216883116,0.355411272207792
484,54.338960025974,0.450216464199134
485,57.2688299047618,0.574025975930735
486,60.4012977965367,0.735064948484847
487,63.7268404545454,0.952813870346319
488,67.1857150389609,1.23073593341991
489,70.7337664155843,1.56580090948052
490,74.3645025108224,1.98787884502164
491,78.0255403333332,2.51774895116883
492,81.6541116450215,3.18701297359307
493,85.2077907359306,4.01125546839826
494,88.5896088571427,5.06623382380952
495,91.7207786536795,6.32943726969696
496,94.4805189437228,7.87575759004328
497,96.7683978138527,9.80129864718613
498,98.501298168831,12.0268399
499,99.5999997619046,14.6411256744589
500,99.9714286277055,17.6632035515151
501,99.5679658268397,21.0588748930736
502,98.3428580129869,24.8935069264069
503,96.2679668398267,29.145454991342
504,93.3532475021644,33.903463025974
505,89.6575763463202,39.0800855757575
506,85.2623369913419,44.3883106493506
507,80.3073584155843,49.9835487316017
508,74.913851134199,55.6874443722943
509,69.2268385887445,61.3852805714285
510,63.3822506536796,66.9666662857142
511,57.516450103896,72.35974004329
512,51.7333331385281,77.4181816839826
513,46.1285719956709,82.0688307056276
514,40.7987017229437,86.2025970259739
515,35.8303034069264,89.9025970606059
516,31.2601732683982,93.023376164502
517,27.110823082251,95.7233765757574
518,23.3969704199134,97.6445893506492
519,20.1121216709956,98.997403181818
520,17.228571808658,99.5822517359306
521,14.6926410800866,99.8398268528137
522,12.4770565311688,99.7095234718613
523,10.5701299463203,99.0090904805193
524,8.93160181861471,97.9134198961038
525,7.53896124025973,96.645022151515
526,6.37186168181817,94.9510835281384
527,5.39653696277056,92.9558448917748
528,4.58354988701298,90.6978359567098
529,3.88787883809523,88.4506499999999
530,3.30000003463203,86.0844163809523
531,2.82121214848484,83.4489189826839
532,2.41038962294372,80.7393955670995
533,2.06839825281385,78.1160193376622
534,1.77142855376623,75.4727287835497
535,1.51774888770563,72.790044099567
536,1.30346317714286,70.1415594935064
537,1.12683980995671,67.5692649696969
538,0.992640694329003,65.0770561991341
539,0.878787876320345,62.638095103896
540,0.787878793246752,60.2160168095237
541,0.704761915584415,58.0021643809523
542,0.625108239437229,55.8783544718614
543,0.564502175108224,53.9199129437229
544,0.534199126796536,51.9987012640692
545,0.507792198744588,50.2857136709956
546,0.483116876666666,48.634631047619
547,0.453679653030302,47.0744579783549
548,0.446320356969696,45.5727267922077
549,0.416883133333333,44.2160174242424
550,0.383116901255411,42.9017314761904
551,0.362770577142857,41.7571429047618
552,0.340259747402597,40.6432901125541
553,0.300000004155844,39.6471859047619
554,0.259740262857143,38.6636365194805
555,0.228138532597402,37.6848484199134
556,0.222943732467532,36.7441559350649
557,0.20000001060606,35.7999999134199
558,0.177056286580086,34.854978090909
559,0.162770569047619,33.9705629480519
560,0.128138530952381,33.0939393939393
561,0.110822511904762,32.22987004329
562,0.119913421904762,31.3709956926406
563,0.131168834285714,30.5424241904761
564,0.148917753809524,29.7225109870129
565,0.139826843809524,28.9000002034632
566,0.137229440952381,28.0683986666666
567,0.13679654047619,27.2454553852813
568,0.143290047619047,26.4489182337662
569,0.156709962380952,25.5969699826839
570,0.172294379523809,24.7740261731601
571,0.165800872380952,23.970562995671
572,0.146320350952381,23.157576073593
573,0.113852815238095,22.3623378917749
574,0.0969696966666665,21.5424245844156
575,0.0909090899999999,20.7506496709956
576,0.0999999999999999,19.97359304329
577,0.0999999999999999,19.1935064025974
578,0.0999999999999999,18.4411254502164
579,0.0999999999999999,17.7051947748918
580,0.0999999999999999,16.9943725238095
581,0.0999999999999999,16.3281389307359
582,0.0999999999999999,15.6601736493506
583,0.0999999999999999,15.0593077575757
584,0.0999999999999999,14.4813857445887
585,0.0999999999999999,13.9112558095238
586,0.0999999999999999,13.3536798571428
587,0.0999999999999999,12.7818183463203
588,0.0999999999999999,12.2220781558441
589,0.0999999999999999,11.683117051948
590,0.0999999999999999,11.1935065632034
591,0.0999999999999999,10.7398267428571
592,0.0999999999999999,10.3376623480519
593,0.0999999999999999,9.92294367229436
594,0.0999999999999999,9.54675317662336
595,0.0999999999999999,9.14285702987012
596,0.0999999999999999,8.79783542467531
597,0.0999999999999999,8.44285718701297
598,0.0999999999999999,8.13766245757575
599,0.0999999999999999,7.83809537402596
600,0.0999999999999999,7.55757596796536
601,0.0999999999999999,7.26753260129869
602,0.0999999999999999,6.98787883722943
603,0.0999999999999999,6.71601727445887
604,0.0999999999999999,6.49653673419913
605,0.0999999999999999,6.25627706233765
606,0.0999999999999999,6.05064937402597
607,0.0999999999999999,5.85974028571428
608,0.0999999999999999,5.6593074073593
609,0.0999999999999999,5.4826840103896
610,0.0999999999999999,5.28787879870129
611,0.0999999999999999,5.11904759350649
612,0.0999999999999999,4.99177481601731
613,0.0999999999999999,4.83116879999999
614,0.0999999999999999,4.67705624761904
615,0,4.52251081255411
616,0,4.37445885367965
617,0,4.23073591688311
618,0,4.08008659523809
619,0,3.94458869610389
620,0,3.84632026536796
621,0,3.71688302683982
622,0,3.58311682121212
623,0,3.45367964675324
624,0,3.33722944545454
625,0,3.21385279740259
626,0,3.09696969307359
627,0,2.99090906623376
628,0,2.89999999264069
629,0,2.8000000012987
630,0,2.70000005844155
631,0,2.60000006883117
632,0,2.49090914632034
633,0,2.39696971082251
634,0,2.31385281082251
635,0,2.23722943722943
636,0,2.15367965670995
637,0,2.08311686926407
638,0,2.01688306147186
639,0,1.94632027748917
640,0,1.85367959523809
641,0,1.78311686363636
642,0,1.70779222727273
643,0,1.63419919264069
644,0,1.57359314242424
645,0,1.53722949264069
646,0,1.50303031688311
647,0,1.44891774588744
648,0,1.37705626796537
649,0,1.32294372294372
650,0,1.25108225108225
651,0,1.18787878787879
652,0,1.15064935064935
653,0,1.13722943904762
654,0,1.12597402839827
655,0,1.08614718398268
656,0,1.03982682961039
657,0,1.00909088181818
658,0,0.954112521904761
659,0,0.896969670216449
660,0,0.850649338008657
661,0,0.837229447445886
662,0,0.816883146406925
663,0,0.783116922770562
664,0,0.753679693506493
665,0,0.737229464675324
666,0,0.722943746623376
667,0,0.700000019696969
668,0,0.677056293852813
669,0,0.662770579047618
670,0,0.63722945095238
671,0,0.622943736147185
672,0,0.600000010303029
673,0,0.577056283376623
674,0,0.562770565324675
675,0,0.537229434675324
676,0,0.513852806623376
677,0,0.496969686363636
678,0,0.499999985454545
679,0,0.503030292121211
680,0,0.48614718030303
681,0,0.462770563939393
682,0,0.437229446060605
683,0,0.413852829696969
684,0,0.396969717878787
685,0,0.390909113636363
686,0,0.40909093090909
687,0,0.403030323636363
688,0,0.386147203376623
689,0,0.362770575324675
690,0,0.337229444675324
691,0,0.313852816623376
692,0,0.296969696363636
693,0,0.290909089090909
694,0,0.3
695,0,0.3
696,0,0.3
697,0,0.309090908181818
698,0,0.303030302727272
699,0,0.286147187532467
700,0,0.262770566493506
701,0,0.237229443506493
702,0,0.213852822467532
703,0,0.196969707272727
704,0,0.190909101818182
705,0,0.20000001
706,0,0.20000001
707,0,0.20000001
708,0,0.20000001
709,0,0.20000001
710,0,0.20000001
711,0,0.20909092
712,0,0.203030313333333
713,0,0.186147194761905
714,0,0.162770569047619
715,0,0.137229440952381
716,0,0.113852815238095
717,0,0.0969696966666665
718,0,0.0909090899999999
719,0,0.0999999999999999
720,0,0.0999999999999999
721,0,0.0999999999999999
722,0,0.0999999999999999
723,0,0.0999999999999999
724,0,0.0999999999999999
725,0,0.0999999999999999
726,0,0.0999999999999999
727,0,0.0999999999999999
728,0,0.0999999999999999
729,0,0.0999999999999999
730,0,0.0999999999999999
731,0,0.0999999999999999
732,0,0.0999999999999999
733,0,0.0999999999999999
734,0,0.0999999999999999
735,0,0.0999999999999999
736,0,0.0999999999999999
737,0,0.0999999999999999
738,0,0.0999999999999999
739,0,0.0999999999999999
740,0,0.0999999999999999
741,0,0.0999999999999999
742,0,0.0999999999999999
743,0,0.0999999999999999
744,0,0.0999999999999999
745,0,0.0999999999999999
746,0,0.0999999999999999
747,0,0.0999999999999999
748,0,0.0999999999999999
749,0,0.0999999999999999
750,0,0.0999999999999999
751,0,0.0999999999999999
752,0,0.0999999999999999
753,0,0.0999999999999999
754,0,0.0999999999999999
755,0,0.0999999999999999
756,0,0.0999999999999999
757,0,0.0999999999999999
758,0,0.0999999999999999
759,0,0.0999999999999999
760,0,0.0999999999999999
761,0,0.0999999999999999
762,0,0.0999999999999999
763,0,0.0999999999999999
764,0,0.0999999999999999
765,0,0.0999999999999999
766,0,0.0999999999999999
767,0,0.0999999999999999
768,0,0.0999999999999999
769,0,0.0999999999999999
770,0,0.0999999999999999
771,0,0.0999999999999999
772,0,0
773,0,0
774,0,0
775,0,0
776,0,0
777,0,0
778,0,0
779,0,0
780,0,0
781,0,0
782,0,0
783,0,0
784,0,0
785,0,0
786,0,0
787,0,0
788,0,0
789,0,0
790,0,0
791,0,0
792,0,0
793,0,0
794,0,0
795,0,0
796,0,0
797,0,0
798,0,0
799,0,0
800,0,0
801,0,0
802,0,0
803,0,0
804,0,0
805,0,0
806,0,0
807,0,0
808,0,0
809,0,0
810,0,0
811,0,0
812,0,0
813,0,0
814,0,0
815,0,0
816,0,0
817,0,0
818,0,0
819,0,0
820,0,0
821,0,0
822,0,0
823,0,0
824,0,0
825,0,0
826,0,0
827,0,0
828,0,0
829,0,0
830,0,0
831,0,0
832,0,0
833,0,0
834,0,0
835,0,0
836,0,0
837,0,0
838,0,0
839,0,0
840,0,0
841,0,0
842,0,0
843,0,0
844,0,0
845,0,0
846,0,0
847,0,0
848,0,0
849,0,0
850,0,0
851,0,0
852,0,0
853,0,0
854,0,0
855,0,0
856,0,0
857,0,0
858,0,0
859,0,0
860,0,0
861,0,0
862,0,0
863,0,0
864,0,0
865,0,0
866,0,0
867,0,0
868,0,0
869,0,0
870,0,0
871,0,0
872,0,0
873,0,0
874,0,0
875,0,0
876,0,0
877,0,0
878,0,0
879,0,0
880,0,0
881,0,0
882,0,0
883,0,0
884,0,0
885,0,0
886,0,0
887,0,0
888,0,0
889,0,0
890,0,0
891,0,0
892,0,0
893,0,0
894,0,0
895,0,0
896,0,0
897,0,0
898,0,0
899,0,0
900,0,0
901,0,0
902,0,0
903,0,0
904,0,0
905,0,0
906,0,0
907,0,0
908,0,0
909,0,0
910,0,0
911,0,0
912,0,0
913,0,0
914,0,0
915,0,0
916,0,0
917,0,0
918,0,0
919,0,0
920,0,0
921,0,0
922,0,0
923,0,0
924,0,0
925,0,0
926,0,0
927,0,0
928,0,0
929,0,0
930,0,0
931,0,0
932,0,0
933,0,0
934,0,0
935,0,0
936,0,0
937,0,0
938,0,0
939,0,0
940,0,0
941,0,0
942,0,0
943,0,0
944,0,0
945,0,0
946,0,0
947,0,0
948,0,0
949,0,0
950,0,0
951,0,0
952,0,0
953,0,0
954,0,0
955,0,0
956,0,0
957,0,0
958,0,0
959,0,0
960,0,0
961,0,0
962,0,0
963,0,0
964,0,0
965,0,0
966,0,0
967,0,0
968,0,0
969,0,0
970,0,0
